  #energy          xx             yy              zz              xy              yz              zx
  0.92000000E+00  0.30104929E+01  0.30104929E+01  0.30104929E+01  0.00000000E+00  0.00000000E+00  0.00000000E+00
  0.93370000E+00  0.30134228E+01  0.30134228E+01  0.30134228E+01  0.00000000E+00  0.00000000E+00  0.00000000E+00
  0.94750000E+00  0.30164627E+01  0.30164627E+01  0.30164627E+01  0.00000000E+00  0.00000000E+00  0.00000000E+00
  0.96120000E+00  0.30195689E+01  0.30195689E+01  0.30195689E+01  0.00000000E+00  0.00000000E+00  0.00000000E+00
  0.97500000E+00  0.30227869E+01  0.30227869E+01  0.30227869E+01  0.00000000E+00  0.00000000E+00  0.00000000E+00
  0.98870000E+00  0.30260701E+01  0.30260701E+01  0.30260701E+01  0.00000000E+00  0.00000000E+00  0.00000000E+00
  0.10025000E+01  0.30294668E+01  0.30294668E+01  0.30294668E+01  0.00000000E+00  0.00000000E+00  0.00000000E+00
  0.10162000E+01  0.30329284E+01  0.30329284E+01  0.30329284E+01  0.00000000E+00  0.00000000E+00  0.00000000E+00
  0.10300000E+01  0.30365065E+01  0.30365065E+01  0.30365065E+01  0.00000000E+00  0.00000000E+00  0.00000000E+00
  0.10437000E+01  0.30401509E+01  0.30401509E+01  0.30401509E+01  0.00000000E+00  0.00000000E+00  0.00000000E+00
  0.10575000E+01  0.30439167E+01  0.30439167E+01  0.30439167E+01  0.00000000E+00  0.00000000E+00  0.00000000E+00
  0.10712000E+01  0.30477516E+01  0.30477516E+01  0.30477516E+01  0.00000000E+00  0.00000000E+00  0.00000000E+00
  0.10850000E+01  0.30517143E+01  0.30517143E+01  0.30517143E+01  0.00000000E+00  0.00000000E+00  0.00000000E+00
  0.10987000E+01  0.30557503E+01  0.30557503E+01  0.30557503E+01  0.00000000E+00  0.00000000E+00  0.00000000E+00
  0.11125000E+01  0.30599217E+01  0.30599217E+01  0.30599217E+01  0.00000000E+00  0.00000000E+00  0.00000000E+00
  0.11262000E+01  0.30641715E+01  0.30641715E+01  0.30641715E+01  0.00000000E+00  0.00000000E+00  0.00000000E+00
  0.11399000E+01  0.30685335E+01  0.30685335E+01  0.30685335E+01  0.00000000E+00  0.00000000E+00  0.00000000E+00
  0.11537000E+01  0.30730448E+01  0.30730448E+01  0.30730448E+01  0.00000000E+00  0.00000000E+00  0.00000000E+00
  0.11674000E+01  0.30776436E+01  0.30776436E+01  0.30776436E+01  0.00000000E+00  0.00000000E+00  0.00000000E+00
  0.11812000E+01  0.30824006E+01  0.30824006E+01  0.30824006E+01  0.00000000E+00  0.00000000E+00  0.00000000E+00
  0.11949000E+01  0.30872497E+01  0.30872497E+01  0.30872497E+01  0.00000000E+00  0.00000000E+00  0.00000000E+00
  0.12087000E+01  0.30922639E+01  0.30922639E+01  0.30922639E+01  0.00000000E+00  0.00000000E+00  0.00000000E+00
  0.12224000E+01  0.30973716E+01  0.30973716E+01  0.30973716E+01  0.00000000E+00  0.00000000E+00  0.00000000E+00
  0.12362000E+01  0.31026466E+01  0.31026466E+01  0.31026466E+01  0.00000000E+00  0.00000000E+00  0.00000000E+00
  0.12499000E+01  0.31080093E+01  0.31080093E+01  0.31080093E+01  0.00000000E+00  0.00000000E+00  0.00000000E+00
  0.12637000E+01  0.31135306E+01  0.31135306E+01  0.31135306E+01  0.00000000E+00  0.00000000E+00  0.00000000E+00
  0.12774000E+01  0.31191181E+01  0.31191181E+01  0.31191181E+01  0.00000000E+00  0.00000000E+00  0.00000000E+00
  0.12912000E+01  0.31248327E+01  0.31248327E+01  0.31248327E+01  0.00000000E+00  0.00000000E+00  0.00000000E+00
  0.13049000E+01  0.31305622E+01  0.31305622E+01  0.31305622E+01  0.00000000E+00  0.00000000E+00  0.00000000E+00
  0.13186000E+01  0.31363101E+01  0.31363101E+01  0.31363101E+01  0.00000000E+00  0.00000000E+00  0.00000000E+00
  0.13324000E+01  0.31420642E+01  0.31420642E+01  0.31420642E+01  0.00000000E+00  0.00000000E+00  0.00000000E+00
  0.13461000E+01  0.31476632E+01  0.31476632E+01  0.31476632E+01  0.00000000E+00  0.00000000E+00  0.00000000E+00
  0.13599000E+01  0.31530843E+01  0.31530843E+01  0.31530843E+01  0.00000000E+00  0.00000000E+00  0.00000000E+00
  0.13736000E+01  0.31581178E+01  0.31581178E+01  0.31581178E+01  0.00000000E+00  0.00000000E+00  0.00000000E+00
  0.13874000E+01  0.31626710E+01  0.31626710E+01  0.31626710E+01  0.00000000E+00  0.00000000E+00  0.00000000E+00
  0.14011000E+01  0.31664832E+01  0.31664832E+01  0.31664832E+01  0.00000000E+00  0.00000000E+00  0.00000000E+00
  0.14149000E+01  0.31693825E+01  0.31693825E+01  0.31693825E+01  0.00000000E+00  0.00000000E+00  0.00000000E+00
  0.14286000E+01  0.31710884E+01  0.31710884E+01  0.31710884E+01  0.00000000E+00  0.00000000E+00  0.00000000E+00
  0.14424000E+01  0.31713811E+01  0.31713811E+01  0.31713811E+01  0.00000000E+00  0.00000000E+00  0.00000000E+00
  0.14561000E+01  0.31700481E+01  0.31700481E+01  0.31700481E+01  0.00000000E+00  0.00000000E+00  0.00000000E+00
  0.14699000E+01  0.31669117E+01  0.31669117E+01  0.31669117E+01  0.00000000E+00  0.00000000E+00  0.00000000E+00
  0.14836000E+01  0.31619628E+01  0.31619628E+01  0.31619628E+01  0.00000000E+00  0.00000000E+00  0.00000000E+00
  0.14974000E+01  0.31551934E+01  0.31551934E+01  0.31551934E+01  0.00000000E+00  0.00000000E+00  0.00000000E+00
  0.15111000E+01  0.31469205E+01  0.31469205E+01  0.31469205E+01  0.00000000E+00  0.00000000E+00  0.00000000E+00
  0.15248000E+01  0.31375290E+01  0.31375290E+01  0.31375290E+01  0.00000000E+00  0.00000000E+00  0.00000000E+00
  0.15386000E+01  0.31275280E+01  0.31275280E+01  0.31275280E+01  0.00000000E+00  0.00000000E+00  0.00000000E+00
  0.15523000E+01  0.31176803E+01  0.31176803E+01  0.31176803E+01  0.00000000E+00  0.00000000E+00  0.00000000E+00
  0.15661000E+01  0.31085166E+01  0.31085166E+01  0.31085166E+01  0.00000000E+00  0.00000000E+00  0.00000000E+00
  0.15798000E+01  0.31007274E+01  0.31007274E+01  0.31007274E+01  0.00000000E+00  0.00000000E+00  0.00000000E+00
  0.15936000E+01  0.30946604E+01  0.30946604E+01  0.30946604E+01  0.00000000E+00  0.00000000E+00  0.00000000E+00
  0.16073000E+01  0.30906217E+01  0.30906217E+01  0.30906217E+01  0.00000000E+00  0.00000000E+00  0.00000000E+00
  0.16211000E+01  0.30886363E+01  0.30886363E+01  0.30886363E+01  0.00000000E+00  0.00000000E+00  0.00000000E+00
  0.16348000E+01  0.30886145E+01  0.30886145E+01  0.30886145E+01  0.00000000E+00  0.00000000E+00  0.00000000E+00
  0.16486000E+01  0.30903778E+01  0.30903778E+01  0.30903778E+01  0.00000000E+00  0.00000000E+00  0.00000000E+00
  0.16623000E+01  0.30936307E+01  0.30936307E+01  0.30936307E+01  0.00000000E+00  0.00000000E+00  0.00000000E+00
  0.16761000E+01  0.30981704E+01  0.30981704E+01  0.30981704E+01  0.00000000E+00  0.00000000E+00  0.00000000E+00
  0.16898000E+01  0.31036619E+01  0.31036619E+01  0.31036619E+01  0.00000000E+00  0.00000000E+00  0.00000000E+00
  0.17035000E+01  0.31099472E+01  0.31099472E+01  0.31099472E+01  0.00000000E+00  0.00000000E+00  0.00000000E+00
  0.17173000E+01  0.31169272E+01  0.31169272E+01  0.31169272E+01  0.00000000E+00  0.00000000E+00  0.00000000E+00
  0.17310000E+01  0.31243364E+01  0.31243364E+01  0.31243364E+01  0.00000000E+00  0.00000000E+00  0.00000000E+00
  0.17448000E+01  0.31321812E+01  0.31321812E+01  0.31321812E+01  0.00000000E+00  0.00000000E+00  0.00000000E+00
  0.17585000E+01  0.31402555E+01  0.31402555E+01  0.31402555E+01  0.00000000E+00  0.00000000E+00  0.00000000E+00
  0.17723000E+01  0.31486299E+01  0.31486299E+01  0.31486299E+01  0.00000000E+00  0.00000000E+00  0.00000000E+00
  0.17860000E+01  0.31571323E+01  0.31571323E+01  0.31571323E+01  0.00000000E+00  0.00000000E+00  0.00000000E+00
  0.17998000E+01  0.31658703E+01  0.31658703E+01  0.31658703E+01  0.00000000E+00  0.00000000E+00  0.00000000E+00
  0.18135000E+01  0.31746898E+01  0.31746898E+01  0.31746898E+01  0.00000000E+00  0.00000000E+00  0.00000000E+00
  0.18273000E+01  0.31837212E+01  0.31837212E+01  0.31837212E+01  0.00000000E+00  0.00000000E+00  0.00000000E+00
  0.18410000E+01  0.31928193E+01  0.31928193E+01  0.31928193E+01  0.00000000E+00  0.00000000E+00  0.00000000E+00
  0.18548000E+01  0.32021281E+01  0.32021281E+01  0.32021281E+01  0.00000000E+00  0.00000000E+00  0.00000000E+00
  0.18685000E+01  0.32115039E+01  0.32115039E+01  0.32115039E+01  0.00000000E+00  0.00000000E+00  0.00000000E+00
  0.18823000E+01  0.32210972E+01  0.32210972E+01  0.32210972E+01  0.00000000E+00  0.00000000E+00  0.00000000E+00
  0.18960000E+01  0.32307499E+01  0.32307499E+01  0.32307499E+01  0.00000000E+00  0.00000000E+00  0.00000000E+00
  0.19097000E+01  0.32405585E+01  0.32405585E+01  0.32405585E+01  0.00000000E+00  0.00000000E+00  0.00000000E+00
  0.19235000E+01  0.32506239E+01  0.32506239E+01  0.32506239E+01  0.00000000E+00  0.00000000E+00  0.00000000E+00
  0.19372000E+01  0.32607741E+01  0.32607741E+01  0.32607741E+01  0.00000000E+00  0.00000000E+00  0.00000000E+00
  0.19510000E+01  0.32711682E+01  0.32711682E+01  0.32711682E+01  0.00000000E+00  0.00000000E+00  0.00000000E+00
  0.19647000E+01  0.32816272E+01  0.32816272E+01  0.32816272E+01  0.00000000E+00  0.00000000E+00  0.00000000E+00
  0.19785000E+01  0.32923051E+01  0.32923051E+01  0.32923051E+01  0.00000000E+00  0.00000000E+00  0.00000000E+00
  0.19922000E+01  0.33029958E+01  0.33029958E+01  0.33029958E+01  0.00000000E+00  0.00000000E+00  0.00000000E+00
  0.20060000E+01  0.33138305E+01  0.33138305E+01  0.33138305E+01  0.00000000E+00  0.00000000E+00  0.00000000E+00
  0.20197000E+01  0.33245560E+01  0.33245560E+01  0.33245560E+01  0.00000000E+00  0.00000000E+00  0.00000000E+00
  0.20335000E+01  0.33352543E+01  0.33352543E+01  0.33352543E+01  0.00000000E+00  0.00000000E+00  0.00000000E+00
  0.20472000E+01  0.33455992E+01  0.33455992E+01  0.33455992E+01  0.00000000E+00  0.00000000E+00  0.00000000E+00
  0.20610000E+01  0.33555784E+01  0.33555784E+01  0.33555784E+01  0.00000000E+00  0.00000000E+00  0.00000000E+00
  0.20747000E+01  0.33647364E+01  0.33647364E+01  0.33647364E+01  0.00000000E+00  0.00000000E+00  0.00000000E+00
  0.20884000E+01  0.33729172E+01  0.33729172E+01  0.33729172E+01  0.00000000E+00  0.00000000E+00  0.00000000E+00
  0.21022000E+01  0.33798910E+01  0.33798910E+01  0.33798910E+01  0.00000000E+00  0.00000000E+00  0.00000000E+00
  0.21159000E+01  0.33851035E+01  0.33851035E+01  0.33851035E+01  0.00000000E+00  0.00000000E+00  0.00000000E+00
  0.21297000E+01  0.33883084E+01  0.33883084E+01  0.33883084E+01  0.00000000E+00  0.00000000E+00  0.00000000E+00
  0.21434000E+01  0.33890680E+01  0.33890680E+01  0.33890680E+01  0.00000000E+00  0.00000000E+00  0.00000000E+00
  0.21572000E+01  0.33872547E+01  0.33872547E+01  0.33872547E+01  0.00000000E+00  0.00000000E+00  0.00000000E+00
  0.21709000E+01  0.33827636E+01  0.33827636E+01  0.33827636E+01  0.00000000E+00  0.00000000E+00  0.00000000E+00
  0.21847000E+01  0.33758282E+01  0.33758282E+01  0.33758282E+01  0.00000000E+00  0.00000000E+00  0.00000000E+00
  0.21984000E+01  0.33668914E+01  0.33668914E+01  0.33668914E+01  0.00000000E+00  0.00000000E+00  0.00000000E+00
  0.22122000E+01  0.33566968E+01  0.33566968E+01  0.33566968E+01  0.00000000E+00  0.00000000E+00  0.00000000E+00
  0.22259000E+01  0.33461790E+01  0.33461790E+01  0.33461790E+01  0.00000000E+00  0.00000000E+00  0.00000000E+00
  0.22397000E+01  0.33363991E+01  0.33363991E+01  0.33363991E+01  0.00000000E+00  0.00000000E+00  0.00000000E+00
  0.22534000E+01  0.33283148E+01  0.33283148E+01  0.33283148E+01  0.00000000E+00  0.00000000E+00  0.00000000E+00
  0.22672000E+01  0.33227943E+01  0.33227943E+01  0.33227943E+01  0.00000000E+00  0.00000000E+00  0.00000000E+00
  0.22809000E+01  0.33201882E+01  0.33201882E+01  0.33201882E+01  0.00000000E+00  0.00000000E+00  0.00000000E+00
  0.22946000E+01  0.33208304E+01  0.33208304E+01  0.33208304E+01  0.00000000E+00  0.00000000E+00  0.00000000E+00
  0.23084000E+01  0.33248573E+01  0.33248573E+01  0.33248573E+01  0.00000000E+00  0.00000000E+00  0.00000000E+00
  0.23221000E+01  0.33316880E+01  0.33316880E+01  0.33316880E+01  0.00000000E+00  0.00000000E+00  0.00000000E+00
  0.23359000E+01  0.33411714E+01  0.33411714E+01  0.33411714E+01  0.00000000E+00  0.00000000E+00  0.00000000E+00
  0.23496000E+01  0.33525879E+01  0.33525879E+01  0.33525879E+01  0.00000000E+00  0.00000000E+00  0.00000000E+00
  0.23634000E+01  0.33658307E+01  0.33658307E+01  0.33658307E+01  0.00000000E+00  0.00000000E+00  0.00000000E+00
  0.23771000E+01  0.33802004E+01  0.33802004E+01  0.33802004E+01  0.00000000E+00  0.00000000E+00  0.00000000E+00
  0.23909000E+01  0.33957255E+01  0.33957255E+01  0.33957255E+01  0.00000000E+00  0.00000000E+00  0.00000000E+00
  0.24046000E+01  0.34117825E+01  0.34117825E+01  0.34117825E+01  0.00000000E+00  0.00000000E+00  0.00000000E+00
  0.24184000E+01  0.34285154E+01  0.34285154E+01  0.34285154E+01  0.00000000E+00  0.00000000E+00  0.00000000E+00
  0.24321000E+01  0.34453413E+01  0.34453413E+01  0.34453413E+01  0.00000000E+00  0.00000000E+00  0.00000000E+00
  0.24459000E+01  0.34624457E+01  0.34624457E+01  0.34624457E+01  0.00000000E+00  0.00000000E+00  0.00000000E+00
  0.24596000E+01  0.34791754E+01  0.34791754E+01  0.34791754E+01  0.00000000E+00  0.00000000E+00  0.00000000E+00
  0.24733000E+01  0.34955922E+01  0.34955922E+01  0.34955922E+01  0.00000000E+00  0.00000000E+00  0.00000000E+00
  0.24871000E+01  0.35117422E+01  0.35117422E+01  0.35117422E+01  0.00000000E+00  0.00000000E+00  0.00000000E+00
  0.25008000E+01  0.35269289E+01  0.35269289E+01  0.35269289E+01  0.00000000E+00  0.00000000E+00  0.00000000E+00
  0.25146000E+01  0.35413219E+01  0.35413219E+01  0.35413219E+01  0.00000000E+00  0.00000000E+00  0.00000000E+00
  0.25283000E+01  0.35543011E+01  0.35543011E+01  0.35543011E+01  0.00000000E+00  0.00000000E+00  0.00000000E+00
  0.25421000E+01  0.35660975E+01  0.35660975E+01  0.35660975E+01  0.00000000E+00  0.00000000E+00  0.00000000E+00
  0.25558000E+01  0.35761866E+01  0.35761866E+01  0.35761866E+01  0.00000000E+00  0.00000000E+00  0.00000000E+00
  0.25696000E+01  0.35849319E+01  0.35849319E+01  0.35849319E+01  0.00000000E+00  0.00000000E+00  0.00000000E+00
  0.25833000E+01  0.35919758E+01  0.35919758E+01  0.35919758E+01  0.00000000E+00  0.00000000E+00  0.00000000E+00
  0.25971000E+01  0.35978765E+01  0.35978765E+01  0.35978765E+01  0.00000000E+00  0.00000000E+00  0.00000000E+00
  0.26108000E+01  0.36024728E+01  0.36024728E+01  0.36024728E+01  0.00000000E+00  0.00000000E+00  0.00000000E+00
  0.26246000E+01  0.36065479E+01  0.36065479E+01  0.36065479E+01  0.00000000E+00  0.00000000E+00  0.00000000E+00
  0.26383000E+01  0.36101086E+01  0.36101086E+01  0.36101086E+01  0.00000000E+00  0.00000000E+00  0.00000000E+00
  0.26521000E+01  0.36141008E+01  0.36141008E+01  0.36141008E+01  0.00000000E+00  0.00000000E+00  0.00000000E+00
  0.26658000E+01  0.36184112E+01  0.36184112E+01  0.36184112E+01  0.00000000E+00  0.00000000E+00  0.00000000E+00
  0.26795000E+01  0.36238480E+01  0.36238480E+01  0.36238480E+01  0.00000000E+00  0.00000000E+00  0.00000000E+00
  0.26933000E+01  0.36311273E+01  0.36311273E+01  0.36311273E+01  0.00000000E+00  0.00000000E+00  0.00000000E+00
  0.27070000E+01  0.36396519E+01  0.36396519E+01  0.36396519E+01  0.00000000E+00  0.00000000E+00  0.00000000E+00
  0.27208000E+01  0.36499248E+01  0.36499248E+01  0.36499248E+01  0.00000000E+00  0.00000000E+00  0.00000000E+00
  0.27345000E+01  0.36610611E+01  0.36610611E+01  0.36610611E+01  0.00000000E+00  0.00000000E+00  0.00000000E+00
  0.27483000E+01  0.36734105E+01  0.36734105E+01  0.36734105E+01  0.00000000E+00  0.00000000E+00  0.00000000E+00
  0.27620000E+01  0.36859778E+01  0.36859778E+01  0.36859778E+01  0.00000000E+00  0.00000000E+00  0.00000000E+00
  0.27758000E+01  0.36993071E+01  0.36993071E+01  0.36993071E+01  0.00000000E+00  0.00000000E+00  0.00000000E+00
  0.27895000E+01  0.37126495E+01  0.37126495E+01  0.37126495E+01  0.00000000E+00  0.00000000E+00  0.00000000E+00
  0.28033000E+01  0.37269799E+01  0.37269799E+01  0.37269799E+01  0.00000000E+00  0.00000000E+00  0.00000000E+00
  0.28170000E+01  0.37418477E+01  0.37418477E+01  0.37418477E+01  0.00000000E+00  0.00000000E+00  0.00000000E+00
  0.28308000E+01  0.37585224E+01  0.37585224E+01  0.37585224E+01  0.00000000E+00  0.00000000E+00  0.00000000E+00
  0.28445000E+01  0.37763643E+01  0.37763643E+01  0.37763643E+01  0.00000000E+00  0.00000000E+00  0.00000000E+00
  0.28582000E+01  0.37962593E+01  0.37962593E+01  0.37962593E+01  0.00000000E+00  0.00000000E+00  0.00000000E+00
  0.28720000E+01  0.38189725E+01  0.38189725E+01  0.38189725E+01  0.00000000E+00  0.00000000E+00  0.00000000E+00
  0.28857000E+01  0.38431456E+01  0.38431456E+01  0.38431456E+01  0.00000000E+00  0.00000000E+00  0.00000000E+00
  0.28995000E+01  0.38694538E+01  0.38694538E+01  0.38694538E+01  0.00000000E+00  0.00000000E+00  0.00000000E+00
  0.29132000E+01  0.38961513E+01  0.38961513E+01  0.38961513E+01  0.00000000E+00  0.00000000E+00  0.00000000E+00
  0.29270000E+01  0.39236553E+01  0.39236553E+01  0.39236553E+01  0.00000000E+00  0.00000000E+00  0.00000000E+00
  0.29407000E+01  0.39498218E+01  0.39498218E+01  0.39498218E+01  0.00000000E+00  0.00000000E+00  0.00000000E+00
  0.29545000E+01  0.39749247E+01  0.39749247E+01  0.39749247E+01  0.00000000E+00  0.00000000E+00  0.00000000E+00
  0.29682000E+01  0.39965618E+01  0.39965618E+01  0.39965618E+01  0.00000000E+00  0.00000000E+00  0.00000000E+00
  0.29820000E+01  0.40149586E+01  0.40149586E+01  0.40149586E+01  0.00000000E+00  0.00000000E+00  0.00000000E+00
  0.29957000E+01  0.40275815E+01  0.40275815E+01  0.40275815E+01  0.00000000E+00  0.00000000E+00  0.00000000E+00
  0.30095000E+01  0.40347329E+01  0.40347329E+01  0.40347329E+01  0.00000000E+00  0.00000000E+00  0.00000000E+00
  0.30232000E+01  0.40339541E+01  0.40339541E+01  0.40339541E+01  0.00000000E+00  0.00000000E+00  0.00000000E+00
  0.30370000E+01  0.40258617E+01  0.40258617E+01  0.40258617E+01  0.00000000E+00  0.00000000E+00  0.00000000E+00
  0.30507000E+01  0.40080381E+01  0.40080381E+01  0.40080381E+01  0.00000000E+00  0.00000000E+00  0.00000000E+00
  0.30644000E+01  0.39815665E+01  0.39815665E+01  0.39815665E+01  0.00000000E+00  0.00000000E+00  0.00000000E+00
  0.30782000E+01  0.39481224E+01  0.39481224E+01  0.39481224E+01  0.00000000E+00  0.00000000E+00  0.00000000E+00
  0.30919000E+01  0.39069503E+01  0.39069503E+01  0.39069503E+01  0.00000000E+00  0.00000000E+00  0.00000000E+00
  0.31057000E+01  0.38616178E+01  0.38616178E+01  0.38616178E+01  0.00000000E+00  0.00000000E+00  0.00000000E+00
  0.31194000E+01  0.38128742E+01  0.38128742E+01  0.38128742E+01  0.00000000E+00  0.00000000E+00  0.00000000E+00
  0.31332000E+01  0.37653286E+01  0.37653286E+01  0.37653286E+01  0.00000000E+00  0.00000000E+00  0.00000000E+00
  0.31469000E+01  0.37197292E+01  0.37197292E+01  0.37197292E+01  0.00000000E+00  0.00000000E+00  0.00000000E+00
  0.31607000E+01  0.36802628E+01  0.36802628E+01  0.36802628E+01  0.00000000E+00  0.00000000E+00  0.00000000E+00
  0.31744000E+01  0.36461279E+01  0.36461279E+01  0.36461279E+01  0.00000000E+00  0.00000000E+00  0.00000000E+00
  0.31882000E+01  0.36199618E+01  0.36199618E+01  0.36199618E+01  0.00000000E+00  0.00000000E+00  0.00000000E+00
  0.32019000E+01  0.35989943E+01  0.35989943E+01  0.35989943E+01  0.00000000E+00  0.00000000E+00  0.00000000E+00
  0.32157000E+01  0.35846395E+01  0.35846395E+01  0.35846395E+01  0.00000000E+00  0.00000000E+00  0.00000000E+00
  0.32294000E+01  0.35732081E+01  0.35732081E+01  0.35732081E+01  0.00000000E+00  0.00000000E+00  0.00000000E+00
  0.32432000E+01  0.35660495E+01  0.35660495E+01  0.35660495E+01  0.00000000E+00  0.00000000E+00  0.00000000E+00
  0.32569000E+01  0.35592742E+01  0.35592742E+01  0.35592742E+01  0.00000000E+00  0.00000000E+00  0.00000000E+00
  0.32706000E+01  0.35539747E+01  0.35539747E+01  0.35539747E+01  0.00000000E+00  0.00000000E+00  0.00000000E+00
  0.32844000E+01  0.35515994E+01  0.35515994E+01  0.35515994E+01  0.00000000E+00  0.00000000E+00  0.00000000E+00
  0.32981000E+01  0.35489584E+01  0.35489584E+01  0.35489584E+01  0.00000000E+00  0.00000000E+00  0.00000000E+00
  0.33119000E+01  0.35487807E+01  0.35487807E+01  0.35487807E+01  0.00000000E+00  0.00000000E+00  0.00000000E+00
  0.33256000E+01  0.35483420E+01  0.35483420E+01  0.35483420E+01  0.00000000E+00  0.00000000E+00  0.00000000E+00
